# PSAS Launch-12 measured baro (TeleMetrum), full flight. cols: time[s] height_AGL[m]
# source: github.com/psas/Launch-12 data/TeleMetrum/2015-07-19-serial-1372-flight-0002.csv
0.00 1.6
0.50 22.7
1.00 67.0
1.50 133.2
2.00 225.7
2.50 336.2
3.00 463.0
3.50 592.5
4.00 768.9
4.50 890.6
5.00 1017.7
5.50 1187.0
6.00 1372.2
6.50 1551.7
7.00 1731.9
7.50 1881.5
8.00 2026.8
8.50 2177.4
9.00 2314.9
9.50 2445.5
10.00 2736.9
10.50 2832.6
11.00 2943.1
11.50 3040.8
12.00 3147.8
12.50 3236.3
13.00 3336.2
13.50 3414.4
14.00 3508.5
14.50 3593.1
15.00 3654.7
15.50 3743.6
16.00 3807.1
16.50 3883.5
17.00 3940.3
17.50 4008.1
18.00 4065.8
18.50 4119.4
19.00 4173.1
19.50 4233.2
20.00 4278.1
20.50 4325.8
21.00 4372.8
21.50 4412.1
22.00 4449.1
22.50 4485.5
23.00 4522.7
23.50 4554.4
24.00 4587.2
24.50 4613.6
25.00 4637.1
25.50 4662.1
26.00 4681.5
26.50 4702.1
27.00 4717.5
27.50 4730.2
28.00 4745.0
28.50 4756.6
29.00 4763.2
29.50 4771.9
30.00 4773.9
30.50 4777.5
31.01 4777.0
31.51 4778.1
32.02 4771.4
32.61 4764.9
33.11 4754.3
33.61 4747.6
34.11 4741.2
34.61 4724.6
35.11 4705.9
35.61 4708.4
36.11 4699.3
36.61 4657.7
37.11 4636.2
37.61 4620.8
38.11 4610.3
38.61 4604.9
39.11 4603.7
39.61 4600.6
40.11 4593.8
40.61 4591.9
41.11 4588.3
41.61 4584.8
42.11 4579.0
42.61 4581.4
43.11 4572.4
43.61 4569.8
44.11 4565.9
44.61 4562.8
45.11 4556.9
45.61 4552.8
46.11 4551.9
46.61 4544.7
47.11 4545.0
47.61 4540.2
48.11 4534.1
48.61 4530.2
49.11 4526.2
49.61 4525.3
50.11 4515.8
50.61 4515.6
51.11 4509.6
51.61 4507.3
52.11 4503.7
52.61 4499.4
53.11 4495.2
53.61 4491.9
54.11 4488.1
54.61 4486.0
55.11 4481.8
55.61 4476.8
56.11 4475.0
56.61 4470.6
57.11 4466.4
57.61 4462.3
58.11 4460.4
58.61 4455.0
59.11 4451.1
59.61 4444.8
60.11 4443.6
60.61 4439.8
61.11 4433.8
61.61 4432.6
62.11 4426.6
62.61 4424.9
63.11 4419.1
63.61 4418.5
64.11 4412.7
64.61 4408.5
65.11 4406.4
65.61 4401.0
66.11 4395.8
66.61 4395.5
67.11 4391.0
67.61 4386.9
68.11 4382.0
68.61 4382.0
69.11 4374.4
69.61 4374.7
70.11 4371.3
70.61 4363.4
71.11 4358.5
71.61 4360.0
72.11 4354.0
72.61 4352.2
73.11 4344.2
73.61 4342.7
74.11 4335.2
74.61 4336.8
75.11 4332.8
75.61 4326.1
76.11 4322.7
76.61 4317.5
77.11 4314.1
77.61 4312.2
78.11 4307.5
78.61 4304.4
79.11 4300.8
79.61 4296.1
80.11 4293.1
80.61 4288.8
81.11 4284.4
81.61 4278.8
82.11 4279.2
82.61 4272.3
83.11 4270.4
83.61 4268.6
84.11 4262.4
84.61 4259.9
85.11 4257.0
85.61 4251.0
86.11 4248.3
86.61 4242.4
87.11 4241.4
87.61 4240.5
88.11 4232.0
88.61 4228.9
89.11 4224.8
89.61 4221.3
90.11 4218.5
90.61 4211.5
91.11 4209.7
91.61 4206.8
92.11 4202.7
92.61 4198.2
93.11 4195.7
93.61 4194.7
94.11 4190.0
94.61 4184.9
95.11 4181.8
95.61 4178.0
96.11 4175.1
96.61 4171.6
97.11 4164.5
97.61 4163.2
98.11 4163.2
98.61 4153.9
99.11 4149.6
99.61 4148.5
100.11 4143.7
100.61 4140.1
101.11 4140.6
101.61 4133.5
102.11 4129.9
102.61 4127.1
103.11 4122.5
103.61 4120.0
104.11 4112.6
104.61 4109.7
105.11 4108.0
105.61 4103.9
106.11 4101.3
106.61 4096.7
107.11 4095.4
107.61 4091.8
108.11 4087.2
108.61 4079.4
109.11 4079.5
109.61 4073.6
110.11 4070.4
110.61 4066.8
111.11 4062.4
111.61 4059.8
112.11 4060.2
112.61 4055.6
113.11 4049.4
113.61 4046.0
114.11 4042.4
114.61 4039.1
115.11 4035.8
115.61 4029.2
116.11 4027.6
116.61 4022.6
117.11 4022.8
117.61 4015.2
118.11 4012.8
118.61 4009.7
119.11 4004.5
119.61 4004.4
120.11 3998.8
120.61 3994.4
121.11 3990.2
121.61 3985.9
122.11 3983.4
122.61 3979.1
123.11 3975.5
123.61 3976.7
124.11 3967.8
124.61 3964.5
125.11 3962.5
125.61 3957.7
126.11 3955.4
126.61 3951.4
127.11 3946.2
127.61 3943.3
128.11 3939.6
128.61 3939.1
129.11 3931.7
129.61 3929.1
130.11 3924.7
130.61 3922.7
131.11 3916.6
131.61 3915.5
132.11 3907.7
132.61 3907.4
133.11 3900.8
133.61 3899.5
134.11 3897.9
134.61 3890.7
135.11 3888.5
135.61 3885.5
136.11 3884.4
136.61 3876.5
137.11 3875.5
137.61 3870.0
138.11 3867.4
138.61 3859.8
139.11 3860.0
139.61 3854.8
140.11 3852.2
140.61 3847.3
141.11 3843.6
141.61 3840.1
142.11 3838.4
142.61 3834.8
143.11 3829.6
143.61 3826.1
144.11 3825.8
144.61 3818.5
145.11 3816.9
145.61 3809.5
146.11 3808.0
146.61 3803.6
147.11 3799.7
147.61 3797.9
148.11 3794.8
148.61 3792.2
149.11 3787.0
149.61 3780.0
150.11 3778.6
150.61 3775.2
151.11 3773.3
151.61 3769.1
152.11 3761.9
152.61 3758.7
153.11 3755.9
153.61 3753.2
154.11 3747.4
154.61 3747.0
155.11 3741.5
155.61 3738.8
156.11 3733.6
156.61 3730.6
157.11 3724.7
157.61 3725.1
158.11 3719.7
158.61 3716.8
159.11 3714.0
159.61 3709.2
160.11 3705.0
160.61 3701.8
161.11 3697.4
161.61 3693.0
162.11 3691.7
162.61 3686.1
163.11 3685.9
163.61 3679.2
164.11 3673.9
164.61 3671.3
165.11 3669.1
165.61 3665.6
166.11 3660.2
166.61 3656.4
167.11 3655.6
167.61 3651.3
168.11 3647.3
168.61 3641.1
169.11 3638.9
169.61 3636.6
170.11 3634.2
170.61 3627.5
171.11 3626.2
171.61 3622.5
172.11 3618.6
172.61 3617.1
173.11 3611.2
173.61 3609.7
174.11 3603.1
174.61 3599.2
175.11 3596.5
175.61 3593.2
176.11 3589.8
176.61 3586.4
177.11 3582.7
177.61 3579.9
178.11 3575.2
178.61 3569.2
179.11 3565.3
179.61 3564.4
180.11 3558.2
180.61 3558.8
181.11 3550.7
181.61 3547.5
182.11 3544.1
182.61 3542.6
183.11 3539.4
183.61 3535.5
184.11 3534.4
184.61 3527.3
185.11 3521.6
185.61 3516.7
186.11 3515.7
186.61 3513.3
187.11 3509.8
187.61 3506.7
188.11 3502.5
188.61 3499.7
189.11 3496.1
189.61 3491.0
190.11 3489.1
190.61 3481.9
191.11 3480.2
191.61 3476.6
192.11 3472.3
192.61 3470.4
193.11 3467.3
193.61 3463.4
194.11 3458.8
194.61 3458.7
195.11 3451.7
195.61 3447.1
196.11 3443.8
196.61 3444.8
197.11 3439.1
197.61 3436.4
198.11 3432.8
198.61 3426.5
199.11 3425.0
199.61 3422.9
200.11 3416.0
200.61 3411.6
201.11 3410.0
201.61 3405.5
202.11 3402.6
202.61 3400.3
203.11 3396.0
203.61 3389.1
204.11 3388.7
204.61 3383.8
205.11 3380.0
205.61 3376.5
206.11 3373.4
206.61 3372.1
207.11 3370.3
207.61 3365.0
208.11 3359.8
208.61 3353.2
209.11 3352.3
209.61 3349.5
210.11 3346.0
210.61 3341.1
211.11 3342.2
211.61 3335.2
212.11 3331.0
212.61 3326.7
213.11 3325.9
213.61 3318.6
214.11 3317.2
214.61 3314.5
215.11 3310.8
215.61 3308.3
216.11 3300.8
216.61 3297.0
217.11 3294.1
217.61 3291.0
218.11 3289.3
218.61 3284.9
219.11 3281.1
219.61 3275.1
220.11 3272.4
220.61 3268.4
221.11 3266.1
221.61 3261.4
222.11 3258.8
222.61 3255.1
223.11 3250.7
223.61 3246.7
224.11 3243.1
224.61 3241.3
225.11 3233.6
225.61 3234.6
226.11 3230.4
226.61 3228.3
227.11 3221.3
227.61 3219.3
228.11 3213.7
228.61 3212.2
229.11 3203.7
229.61 3204.4
230.11 3199.5
230.61 3196.8
231.11 3192.4
231.61 3189.0
232.11 3185.6
232.61 3184.6
233.11 3179.5
233.61 3177.2
234.11 3174.8
234.61 3168.9
235.11 3164.3
235.61 3163.8
236.11 3156.3
236.61 3157.9
237.11 3154.0
237.61 3151.6
238.11 3145.0
238.61 3140.8
239.11 3136.3
239.61 3136.0
240.11 3130.1
240.61 3125.5
241.11 3124.9
241.61 3120.7
242.11 3116.0
242.61 3114.1
243.11 3111.1
243.61 3108.6
244.11 3103.8
244.61 3098.2
245.11 3093.4
245.61 3090.7
246.11 3090.2
246.61 3085.5
247.11 3080.3
247.61 3077.2
248.11 3073.6
248.61 3067.4
249.11 3068.4
249.61 3063.3
250.11 3058.3
250.61 3055.4
251.11 3053.7
251.61 3048.1
252.11 3045.6
252.61 3043.4
253.11 3038.8
253.61 3033.6
254.11 3033.6
254.61 3028.7
255.11 3024.9
255.61 3020.7
256.11 3018.1
256.61 3015.3
257.11 3011.4
257.61 3005.1
258.11 3003.4
258.61 2999.2
259.11 2994.5
259.61 2994.2
260.11 2988.0
260.61 2983.3
261.11 2982.8
261.61 2977.9
262.11 2975.5
262.61 2972.9
263.11 2968.4
263.61 2964.5
264.11 2961.7
264.61 2956.4
265.11 2954.0
265.61 2950.8
266.11 2948.6
266.61 2943.9
267.11 2940.2
267.61 2938.4
268.11 2934.2
268.61 2929.5
269.11 2926.7
269.61 2922.8
270.11 2920.2
270.61 2916.0
271.11 2913.2
271.61 2909.0
272.11 2903.9
272.61 2902.7
273.11 2900.2
273.61 2895.5
274.11 2891.3
274.61 2891.6
275.11 2884.1
275.61 2883.4
276.11 2878.4
276.61 2875.1
277.11 2872.5
277.61 2866.9
278.11 2866.9
278.61 2861.2
279.11 2857.5
279.61 2854.3
280.11 2854.4
280.61 2848.1
281.11 2842.9
281.61 2841.9
282.11 2837.9
282.61 2834.3
283.11 2833.8
283.61 2829.0
284.11 2821.7
284.61 2820.5
285.11 2817.4
285.61 2813.2
286.11 2811.3
286.61 2806.0
287.11 2802.8
287.61 2801.2
288.11 2798.3
288.61 2792.0
289.11 2787.5
289.61 2788.0
290.11 2782.5
290.61 2776.6
291.11 2776.6
291.61 2772.9
292.11 2768.3
292.61 2767.7
293.11 2762.0
293.61 2759.9
294.11 2756.5
294.61 2755.3
295.11 2750.3
295.61 2746.5
296.11 2744.5
296.61 2737.4
297.11 2734.0
297.61 2730.4
298.11 2727.7
298.61 2724.7
299.11 2722.2
299.61 2718.3
300.11 2715.2
300.61 2712.2
301.11 2708.9
301.61 2703.6
302.11 2700.2
302.61 2698.1
303.11 2695.0
303.61 2691.9
304.11 2688.3
304.61 2684.6
305.11 2681.6
305.61 2681.2
306.11 2676.8
306.61 2670.5
307.11 2666.2
307.61 2663.0
308.11 2660.8
308.61 2657.3
309.11 2656.0
309.61 2650.6
310.11 2647.6
310.61 2644.0
311.11 2640.9
311.61 2637.4
312.11 2635.4
312.61 2633.9
313.11 2630.4
313.61 2624.6
314.11 2619.6
314.61 2616.1
315.11 2615.1
315.61 2610.2
316.11 2606.8
316.61 2605.6
317.11 2601.0
317.61 2598.4
318.11 2593.2
318.61 2591.5
319.11 2587.6
319.61 2584.7
320.11 2580.9
320.61 2577.8
321.11 2574.2
321.61 2573.8
322.11 2567.8
322.61 2564.3
323.11 2561.3
323.61 2558.8
324.11 2556.0
324.61 2553.1
325.11 2547.2
325.61 2545.0
326.11 2541.8
326.61 2536.9
327.11 2533.5
327.61 2530.3
328.11 2528.6
328.61 2525.0
329.11 2522.3
329.61 2515.2
330.11 2515.0
330.61 2511.8
331.11 2508.4
331.61 2507.8
332.11 2503.1
332.61 2497.2
333.11 2497.0
333.61 2491.9
334.11 2488.2
334.61 2484.3
335.11 2480.7
335.61 2479.2
336.11 2474.1
336.61 2472.7
337.11 2466.8
337.61 2465.6
338.11 2459.9
338.61 2456.4
339.11 2455.1
339.61 2451.2
340.11 2448.0
340.61 2446.1
341.11 2440.4
341.61 2439.3
342.11 2439.3
342.61 2432.6
343.11 2427.4
343.61 2426.3
344.11 2421.8
344.61 2417.7
345.11 2417.7
345.61 2415.7
346.11 2408.0
346.61 2405.0
347.11 2401.5
347.61 2399.4
348.11 2394.6
348.61 2391.7
349.11 2386.4
349.61 2384.0
350.11 2381.6
350.61 2377.2
351.11 2374.4
351.61 2370.7
352.11 2368.4
352.61 2366.7
353.11 2358.4
353.61 2358.2
354.11 2355.4
354.61 2349.8
355.11 2346.4
355.61 2342.7
356.11 2341.6
356.61 2339.7
357.11 2334.2
357.61 2328.4
358.11 2327.7
358.61 2324.1
359.11 2322.7
359.61 2318.3
360.11 2314.0
360.61 2311.8
361.11 2303.5
361.61 2301.3
362.11 2298.9
362.61 2295.8
363.11 2292.1
363.61 2290.2
364.11 2285.5
364.61 2282.1
365.11 2277.8
365.61 2273.8
366.11 2272.6
366.61 2269.3
367.11 2267.2
367.61 2263.7
368.11 2258.4
368.61 2254.1
369.11 2250.8
369.61 2245.4
370.11 2245.5
370.61 2242.3
371.11 2238.4
371.61 2234.8
372.11 2232.7
372.61 2228.9
373.11 2224.4
373.61 2221.0
374.11 2215.9
374.61 2214.5
375.11 2211.4
375.61 2206.7
376.11 2203.4
376.61 2200.9
377.11 2196.4
377.61 2194.6
378.11 2190.5
378.61 2185.3
379.11 2183.8
379.61 2179.7
380.11 2178.2
380.61 2175.2
381.11 2169.9
381.61 2166.9
382.11 2163.1
382.61 2158.0
383.11 2157.2
383.61 2153.5
384.11 2151.1
384.61 2147.5
385.11 2143.3
385.61 2140.5
386.11 2135.9
386.61 2132.2
387.11 2130.7
387.61 2127.7
388.11 2124.0
388.61 2121.7
389.11 2117.1
389.61 2113.8
390.11 2111.4
390.61 2104.3
391.11 2103.9
391.61 2099.9
392.11 2096.8
392.61 2092.9
393.11 2090.4
393.61 2086.4
394.11 2083.4
394.61 2081.1
395.11 2075.5
395.61 2072.4
396.11 2070.8
396.61 2067.6
397.11 2066.7
397.61 2059.8
398.11 2056.7
398.61 2053.5
399.11 2052.4
399.61 2048.0
400.11 2045.3
400.61 2040.9
401.11 2038.7
401.61 2034.9
402.11 2033.4
402.61 2028.4
403.11 2023.6
403.61 2019.9
404.11 2018.4
404.61 2015.9
405.11 2011.2
405.61 2008.9
406.11 2006.4
406.61 2001.7
407.11 1998.5
407.61 1994.8
408.11 1994.5
408.61 1987.9
409.11 1983.9
409.61 1980.9
410.11 1977.4
410.61 1974.4
411.11 1971.0
411.61 1964.2
412.11 1962.0
412.61 1959.5
413.11 1958.9
413.61 1952.2
414.11 1950.0
414.61 1948.0
415.11 1944.5
415.61 1939.6
416.11 1935.0
416.61 1930.9
417.11 1930.4
417.61 1925.2
418.11 1923.1
418.61 1921.1
419.11 1916.8
419.61 1912.2
420.11 1908.5
420.61 1907.2
421.11 1903.9
421.61 1897.4
422.11 1895.3
422.61 1893.7
423.11 1890.9
423.61 1888.4
424.11 1884.5
424.61 1881.7
425.11 1879.3
425.61 1876.2
426.11 1869.6
426.61 1870.7
427.11 1867.5
427.61 1863.9
428.11 1859.8
428.61 1856.1
429.11 1855.6
429.61 1852.0
430.11 1850.4
430.61 1844.6
431.11 1841.5
431.61 1837.6
432.11 1833.3
432.61 1833.1
433.11 1828.2
433.61 1822.8
434.11 1819.4
434.61 1817.8
435.11 1815.6
435.61 1812.3
436.11 1806.5
436.61 1803.7
437.11 1801.2
437.61 1800.8
438.11 1794.7
438.61 1791.2
439.11 1789.4
439.61 1784.4
440.11 1781.7
440.61 1778.5
441.11 1776.1
441.61 1770.1
442.11 1763.8
442.61 1763.2
443.11 1758.8
443.61 1757.1
444.11 1753.3
444.61 1751.8
445.11 1745.4
445.61 1742.9
446.11 1738.4
446.61 1736.7
447.11 1731.0
447.61 1729.4
448.11 1723.0
448.61 1720.2
449.11 1718.0
449.61 1711.9
450.11 1710.5
450.61 1705.2
451.11 1702.3
451.61 1700.9
452.11 1700.0
452.61 1691.1
453.11 1689.9
453.61 1686.2
454.11 1682.1
454.61 1678.2
455.11 1676.8
455.61 1671.2
456.11 1670.8
456.61 1665.8
457.11 1663.8
457.61 1659.8
458.11 1657.7
458.61 1654.7
459.11 1652.9
459.61 1648.9
460.11 1645.0
460.61 1642.0
461.11 1640.0
461.61 1636.3
462.11 1634.4
462.61 1629.6
463.11 1626.8
463.61 1625.3
464.11 1622.6
464.61 1620.7
465.11 1615.7
465.61 1612.4
466.11 1611.7
466.61 1608.2
467.11 1604.1
467.61 1599.5
468.11 1598.3
468.61 1595.2
469.11 1591.8
469.61 1589.3
470.11 1586.5
470.61 1583.2
471.11 1580.6
471.61 1576.3
472.11 1576.4
472.61 1572.3
473.11 1565.1
473.61 1566.2
474.11 1561.4
474.61 1557.5
475.11 1557.7
475.61 1553.3
476.11 1548.7
476.61 1545.5
477.11 1545.3
477.61 1537.8
478.11 1535.1
478.61 1531.2
479.11 1531.3
479.61 1523.1
480.11 1521.1
480.61 1519.7
481.11 1515.6
481.61 1512.8
482.11 1505.8
482.61 1503.9
483.11 1499.8
483.61 1497.9
484.11 1494.7
484.61 1490.7
485.11 1488.6
485.61 1485.4
486.11 1482.6
486.61 1478.2
487.11 1476.0
487.61 1471.3
488.11 1467.9
488.61 1462.2
489.11 1463.3
489.61 1456.7
490.11 1453.8
490.61 1451.4
491.11 1447.1
491.61 1444.0
492.11 1440.7
492.61 1437.0
493.11 1433.3
493.61 1430.5
494.11 1426.6
494.61 1423.8
495.11 1419.4
495.61 1415.7
496.11 1409.7
496.61 1407.8
497.11 1403.3
497.61 1400.1
498.11 1397.3
498.61 1393.5
499.11 1388.4
499.61 1386.7
500.11 1383.1
500.61 1379.0
501.11 1373.6
501.61 1373.5
502.11 1367.3
502.61 1363.7
503.11 1361.4
503.61 1355.5
504.11 1353.4
504.61 1349.1
505.11 1345.6
505.61 1341.2
506.11 1337.8
506.61 1337.1
507.11 1331.1
507.61 1327.0
508.11 1323.6
508.61 1321.1
509.11 1317.5
509.61 1315.6
510.11 1311.5
510.61 1308.0
511.11 1302.7
511.61 1299.9
512.11 1296.4
512.61 1292.2
513.11 1290.2
513.61 1286.8
514.11 1282.4
514.61 1278.4
515.11 1278.2
515.61 1270.7
516.11 1268.6
516.61 1267.3
517.11 1262.6
517.61 1258.8
518.11 1256.0
518.61 1251.3
519.11 1248.7
519.61 1246.3
520.11 1240.8
520.61 1239.5
521.11 1236.8
521.61 1231.4
522.11 1227.1
522.61 1222.3
523.11 1221.1
523.61 1215.8
524.11 1212.3
524.61 1211.8
525.11 1204.8
525.61 1202.5
526.11 1197.8
526.61 1194.4
527.11 1190.7
527.61 1184.8
528.11 1181.8
528.61 1179.2
529.11 1174.8
529.61 1173.4
530.11 1169.1
530.61 1166.0
531.11 1162.0
531.61 1155.9
532.11 1151.9
532.61 1149.6
533.11 1145.7
533.61 1141.1
534.11 1137.0
534.61 1134.2
535.11 1130.9
535.61 1127.4
536.11 1125.2
536.61 1119.5
537.11 1116.1
537.61 1111.0
538.11 1109.0
538.61 1107.3
539.11 1103.6
539.61 1098.9
540.11 1096.2
540.61 1091.9
541.11 1090.5
541.61 1084.4
542.11 1090.6
542.61 1078.5
543.11 1075.4
543.61 1073.5
544.11 1067.7
544.61 1063.2
545.11 1060.9
545.61 1057.5
546.11 1055.1
546.61 1051.0
547.11 1047.4
547.61 1043.5
548.11 1039.6
548.61 1036.8
549.11 1035.3
549.61 1029.0
550.11 1027.5
550.61 1022.8
551.11 1018.2
551.61 1015.3
552.11 1012.0
552.61 1008.2
553.11 1007.1
553.61 1004.1
554.11 1002.4
554.61 997.2
555.11 996.2
555.61 992.2
556.11 988.9
556.61 986.8
557.11 982.9
557.61 981.8
558.11 975.8
558.61 974.7
559.11 972.1
559.61 968.4
560.11 965.6
560.61 961.9
561.11 960.0
561.61 955.9
562.11 954.3
562.61 948.8
563.11 945.0
563.61 944.5
564.11 939.9
564.61 936.9
565.11 931.7
565.61 930.6
566.11 927.5
566.61 924.1
567.11 920.5
567.61 918.1
568.11 912.4
568.61 912.1
569.11 908.9
569.61 905.1
570.11 902.4
570.61 900.4
571.11 893.9
571.61 890.7
572.11 890.1
572.61 884.2
573.11 881.6
573.61 877.7
574.11 876.2
574.61 874.3
575.11 870.8
575.61 869.4
576.11 866.8
576.61 863.9
577.11 861.2
577.61 859.2
578.11 857.2
578.61 855.3
579.11 855.6
579.61 850.6
580.11 850.5
580.61 847.0
581.11 843.8
581.61 843.2
582.11 841.0
582.61 838.7
583.11 836.3
583.61 833.8
584.11 830.9
584.61 830.7
585.11 829.4
585.61 826.0
586.11 824.1
586.61 820.8
587.11 820.0
587.61 816.7
588.11 815.3
588.61 813.8
589.11 812.8
589.61 810.2
590.11 808.0
590.61 806.3
591.11 803.9
591.61 801.5
592.11 801.2
592.61 797.2
593.11 794.7
593.61 795.3
594.11 792.9
594.61 791.7
595.11 789.0
595.61 786.3
596.11 784.2
596.61 783.2
597.11 783.2
597.61 778.6
598.11 776.1
598.61 773.9
599.11 774.3
599.61 770.9
600.11 770.1
600.61 764.9
601.11 766.1
601.61 761.0
602.11 761.1
602.61 758.6
603.11 755.6
603.61 754.3
604.11 752.5
604.61 749.5
605.11 744.5
605.61 744.7
606.11 743.1
606.61 739.8
607.11 737.0
607.61 734.7
608.11 733.3
608.61 727.7
609.11 727.6
609.61 725.3
610.11 721.3
610.61 717.8
611.11 715.0
611.61 713.3
612.11 709.9
612.61 706.2
613.11 704.8
613.61 701.2
614.11 697.0
614.61 694.1
615.11 691.9
615.61 687.1
616.11 685.9
616.61 681.3
617.11 678.4
617.61 676.8
618.11 673.4
618.61 668.9
619.11 665.8
619.61 663.4
620.11 657.9
620.61 656.4
621.11 652.8
621.61 648.2
622.11 645.9
622.61 642.6
623.11 641.4
623.61 638.8
624.11 636.0
624.61 632.6
625.11 630.7
625.61 629.3
626.11 624.3
626.61 623.3
627.11 620.5
627.61 615.5
628.11 612.9
628.61 608.2
629.11 608.9
629.61 602.6
630.11 600.0
630.61 596.0
631.11 594.6
631.61 589.7
632.11 587.4
632.61 585.0
633.11 580.6
633.61 577.8
634.11 576.8
634.61 573.4
635.11 569.4
635.61 566.0
636.11 565.9
636.61 561.2
637.11 557.4
637.61 556.4
638.11 552.7
638.61 550.9
639.11 546.3
639.61 544.2
640.11 542.1
640.61 539.3
641.11 534.5
641.61 533.0
642.11 530.8
642.61 528.6
643.11 525.7
643.61 521.1
644.11 517.7
644.61 515.3
645.11 513.2
645.61 510.1
646.11 506.1
646.61 503.9
647.11 501.3
647.61 496.7
648.11 493.3
648.61 488.9
649.11 490.1
649.61 485.5
650.11 483.6
650.61 480.2
651.11 478.1
651.61 472.3
652.11 470.4
652.61 467.9
653.11 464.1
653.61 461.7
654.11 459.9
654.61 456.0
655.11 454.6
655.61 450.8
656.11 448.4
656.61 447.0
657.11 443.9
657.61 442.7
658.11 440.1
658.61 436.8
659.11 432.8
659.61 430.6
660.11 428.3
660.61 425.3
661.11 423.7
661.61 419.4
662.11 416.7
662.61 413.3
663.11 410.7
663.61 408.0
664.11 404.9
664.61 400.9
665.11 397.1
665.61 394.2
666.11 391.9
666.61 389.2
667.11 387.1
667.61 383.3
668.11 377.3
668.61 375.1
669.11 372.3
669.61 369.1
670.11 366.2
670.61 362.6
671.11 358.5
671.61 356.5
672.11 352.9
672.61 347.6
673.11 346.0
673.61 340.7
674.11 337.5
674.61 335.3
675.11 329.0
675.61 324.9
676.11 322.5
676.61 317.4
677.11 315.4
677.61 308.9
678.11 306.9
678.61 304.1
679.11 301.3
679.61 296.5
680.11 292.4
680.61 289.9
681.11 285.2
681.61 283.7
682.11 281.3
682.61 278.8
683.11 272.7
683.61 270.7
684.11 266.6
684.61 264.3
685.11 261.9
685.61 256.6
686.11 254.2
686.61 249.0
687.11 247.1
687.61 245.8
688.11 240.6
688.61 238.2
689.11 234.9
689.61 231.9
690.11 227.9
690.61 226.4
691.11 222.6
691.61 217.8
692.11 216.7
692.61 213.3
693.11 210.4
693.61 207.4
694.11 203.3
694.61 201.4
695.11 200.2
695.61 194.6
696.11 191.7
696.61 189.1
697.11 186.2
697.61 181.4
698.11 179.8
698.61 176.8
699.11 174.8
699.61 171.1
700.11 167.6
700.61 165.0
701.11 161.8
701.61 157.6
702.11 154.8
702.61 153.4
703.11 151.0
703.61 148.9
704.11 142.6
704.61 140.8
705.11 137.8
705.61 132.5
706.11 131.1
706.61 127.9
707.11 124.4
707.61 121.3
708.11 117.4
708.61 114.5
709.11 114.0
709.61 108.5
710.11 107.2
710.61 100.1
711.11 99.2
711.61 95.6
712.11 92.6
712.61 88.8
713.11 86.5
713.61 83.5
714.11 79.3
714.61 78.1
715.11 73.3
715.61 71.8
716.11 68.8
716.61 64.7
717.11 61.3
717.61 59.4
718.11 55.9
718.61 52.8
719.11 49.0
719.61 47.8
720.11 44.8
720.61 41.5
721.11 37.5
721.61 34.9
722.11 32.9
722.61 30.3
723.11 27.2
723.61 23.4
724.11 22.6
724.61 21.0
725.11 17.8
725.61 15.0
726.11 12.8
726.61 10.0
727.11 7.4
727.61 7.0
728.11 3.8
728.61 -0.5
729.11 -2.4
729.61 -2.5
